x,y,z,yaw,velocity,change_flag
94552.0492,208981.1442,-3905.1682,0.9329,2,0
94552.6555,208981.9398,-3905.2692,0.906,4,0
94553.3024,208982.7154,-3905.3882,0.8488,4,0
94553.9831,208983.4798,-3905.4812,0.8034,6,0
94554.7253,208984.152,-3905.5962,0.7159,6,0
94555.5236,208984.7832,-3905.712,0.6026,8,0
94556.3615,208985.3458,-3905.8538,0.5766,8,0
94557.2769,208985.8297,-3905.9845,0.4553,8,0
94558.1919,208986.2779,-3906.1087,0.4531,8,0
94559.1632,208986.5876,-3906.2469,0.3281,8,0
94560.1406,208986.9121,-3906.3607,0.2755,8,0
94561.1239,208987.1691,-3906.4785,0.2212,8,0
94562.1243,208987.36,-3906.6181,0.151,8,0
94563.1195,208987.4683,-3906.7463,0.0917,8,0
94564.1234,208987.4958,-3906.8884,-0.0122,8,0
94565.1317,208987.4535,-3907.0163,-0.04,10,0
94566.1658,208987.3494,-3907.1267,-0.1392,10,0
94567.1626,208987.2046,-3907.2434,-0.1528,10,0
94568.1617,208986.9601,-3907.3436,-0.2627,10,0
94569.1521,208986.6915,-3907.4424,-0.2664,10,0
94570.0955,208986.3442,-3907.5286,-0.359,10,0
94571.0786,208985.9717,-3907.5982,-0.3689,10,0
94572.0027,208985.5682,-3907.6621,-0.4116,10,0
94572.9487,208985.1404,-3907.7281,-0.4143,10,0
94573.8903,208984.6926,-3907.7735,-0.4356,10,0
94574.8358,208984.2412,-3907.8213,-0.4406,10,0
94575.7427,208983.8019,-3907.875,-0.4394,10,0
94576.6662,208983.3483,-3907.9196,-0.4418,10,0
94577.606,208982.9044,-3907.9568,-0.4412,10,0
94578.5171,208982.4842,-3907.9695,-0.4389,10,0
94579.4529,208982.0786,-3907.9662,-0.4372,10,0
94580.3829,208981.6621,-3907.9767,-0.44,10,0
94581.2994,208981.2542,-3908.0007,-0.4371,10,0
94582.2212,208980.846,-3908.0519,-0.4248,10,0
94583.1576,208980.4345,-3908.1028,-0.4222,8,0
94584.1274,208980.0321,-3908.1407,-0.3924,8,0
94585.0732,208979.6588,-3908.1812,-0.3861,8,0
94586.0533,208979.29,-3908.2344,-0.3611,8,0
94587.0245,208978.9484,-3908.2666,-0.3461,8,0
94587.9905,208978.6327,-3908.2706,-0.3064,8,0
94588.9524,208978.3448,-3908.2716,-0.293,8,0
94589.9626,208978.1557,-3908.3147,-0.1986,8,0
94590.9639,208978.0198,-3908.3712,-0.1776,8,0
94591.9641,208978.0075,-3908.4829,-0.0301,8,0
94593.0047,208978.0634,-3908.6149,-0.0066,8,0
94594.0138,208978.1793,-3908.777,0.1333,8,0
94595.0203,208978.341,-3908.9465,0.1676,8,0
94595.9901,208978.5962,-3909.1216,0.3024,8,0
94596.9667,208978.9123,-3909.2961,0.3279,8,0
94597.8865,208979.3202,-3909.4629,0.4877,8,0
94598.7546,208979.8579,-3909.6301,0.5517,8,0
94599.5623,208980.4818,-3909.7954,0.707,8,0
94600.2838,208981.2001,-3909.9543,0.7606,8,0
94600.9723,208981.9427,-3910.1047,0.8498,8,0
94601.5509,208982.8,-3910.2698,0.9458,8,0
94602.0953,208983.6602,-3910.4253,1.026,8,0
94602.5588,208984.5813,-3910.5877,1.0833,8,0
94603.02,208985.5008,-3910.7369,1.1051,8,0
94603.3547,208986.4562,-3910.9014,1.1836,8,0
94603.7036,208987.4194,-3911.0541,1.1931,8,0
94604.0221,208988.4189,-3911.1951,1.2596,8,0
94604.3361,208989.3718,-3911.3189,1.2637,8,0
94604.5561,208990.3636,-3911.4499,1.349,8,0
94604.7512,208991.3643,-3911.5699,1.3656,8,0
94604.8996,208992.3944,-3911.6979,1.436,8,0
94604.9974,208993.402,-3911.8191,1.4599,8,0
94605.0976,208994.3972,-3911.933,1.4621,8,0
94605.1061,208995.4415,-3912.0547,1.5574,8,0
94605.1175,208996.4728,-3912.1713,1.5651,10,0
94605.0618,208997.5125,-3912.2891,1.6426,10,0
94604.9762,208998.5143,-3912.3996,1.6598,10,0
94604.8797,208999.5701,-3912.5118,1.6699,10,0
94604.7036,209000.5651,-3912.6214,1.7334,10,0
94604.5175,209001.5935,-3912.7268,1.7375,10,0
94604.3095,209002.5891,-3912.8318,1.7726,10,0
94604.0769,209003.5671,-3912.9244,1.7854,10,0
94603.8306,209004.5462,-3913.0045,1.7869,10,0
94603.5953,209005.5564,-3913.0957,1.7825,10,0
94603.3463,209006.6228,-3913.1854,1.7785,10,0
94603.1254,209007.6114,-3913.2726,1.7665,10,0
94602.9306,209008.6034,-3913.3687,1.7555,10,0
94602.7302,209009.5996,-3913.4591,1.7572,10,0
94602.5533,209010.6328,-3913.5551,1.7369,10,0
94602.3941,209011.6663,-3913.6495,1.7304,10,0
94602.2393,209012.6598,-3913.7352,1.7292,10,0
94602.0724,209013.6699,-3913.8326,1.7328,10,0
94601.9093,209014.6737,-3913.9378,1.7325,10,0
94601.7367,209015.6727,-3914.0222,1.7347,10,0
94601.5531,209016.7208,-3914.1189,1.739,10,0
94601.3746,209017.7152,-3914.2013,1.7382,10,0
94601.2124,209018.7175,-3914.2756,1.7386,10,0
94601.0434,209019.7577,-3914.342,1.7391,10,0
94600.8811,209020.7566,-3914.4106,1.7404,10,0
94600.7094,209021.7722,-3914.4768,1.736,10,0
94600.5358,209022.8051,-3914.5477,1.737,10,0
94600.3656,209023.8295,-3914.6206,1.7457,10,0
94600.1998,209024.8471,-3914.6913,1.7555,10,0
94600.0305,209025.8567,-3914.7542,1.7582,10,0
94599.8257,209026.8644,-3914.8171,1.7971,10,0
94599.5588,209027.8761,-3914.8653,1.8277,10,0
94599.2854,209028.8999,-3914.9109,1.8301,10,0
94598.9354,209029.8639,-3914.9717,1.9193,10,0
94598.568,209030.8194,-3915.0167,1.9261,10,0
94598.1614,209031.7513,-3915.0639,1.9803,10,0
94597.6668,209032.6263,-3915.1307,2.035,10,0
94597.1527,209033.5043,-3915.1851,2.0328,10,0
94596.6351,209034.3968,-3915.2784,2.0907,10,0
94596.1075,209035.2872,-3915.3718,2.0988,10,0
94595.5807,209036.1634,-3915.4578,2.0935,10,0
94595.0606,209037.043,-3915.5406,2.0875,10,0
94594.5403,209037.9114,-3915.6047,2.0843,10,0
94594.0351,209038.8222,-3915.6655,2.0576,10,0
94593.5315,209039.7435,-3915.7208,2.0541,10,0
94593.021,209040.6718,-3915.7653,2.0556,10,0
94592.5681,209041.6227,-3915.814,2.0087,10,0
94592.1113,209042.5497,-3915.8834,2.0028,10,0
94591.6778,209043.4803,-3915.9191,1.9814,10,0
94591.2842,209044.4319,-3915.9177,1.9692,10,0
94590.8951,209045.3684,-3915.9037,1.9679,10,0
94590.5293,209046.328,-3915.9065,1.9274,10,0
94590.1794,209047.3055,-3915.9292,1.9111,10,0
94589.8383,209048.2505,-3915.9506,1.9119,10,0
94589.5558,209049.2617,-3915.9755,1.8626,10,0
94589.2754,209050.2552,-3916.0005,1.855,10,0
94588.9723,209051.2948,-3916.0556,1.8543,10,0
94588.6909,209052.2702,-3916.216,1.833,10,0
94588.424,209053.2345,-3916.2033,1.8252,10,0
94588.1578,209054.2288,-3916.2083,1.8181,10,0
94587.9198,209055.2004,-3916.2419,1.8147,10,0
94587.6768,209056.1738,-3916.2839,1.816,10,0
94587.4552,209057.1597,-3916.3155,1.7916,10,0
94587.2525,209058.1738,-3916.35,1.7764,10,0
94587.0431,209059.1977,-3916.4042,1.7732,10,0
94586.8328,209060.2009,-3916.6664,1.7481,10,0
94586.6278,209061.2264,-3916.9016,1.745,10,0
94586.438,209062.2092,-3917.129,1.7443,10,0
94586.2962,209063.2543,-3917.3565,1.7053,10,0
94586.1658,209064.2605,-3917.5564,1.7008,10,0
94586.0385,209065.2829,-3917.7517,1.6847,10,0
94585.9248,209066.3145,-3917.9266,1.6611,10,0
94585.8134,209067.3198,-3918.0842,1.6551,10,0
94585.711,209068.3568,-3918.2455,1.6362,10,0
94585.647,209069.3675,-3918.4132,1.6135,10,0
94585.5851,209070.4139,-3918.5833,1.6076,10,0
94585.5749,209071.4222,-3918.7404,1.5389,10,0
94585.5854,209072.4682,-3918.886,1.535,10,0
94585.599,209073.5144,-3919.0178,1.533,10,0
94585.7177,209074.5124,-3919.1407,1.4482,10,0
94585.8358,209075.5089,-3919.2494,1.4406,10,0
94585.9832,209076.534,-3919.3791,1.4018,10,0
94586.1565,209077.5204,-3919.5128,1.3802,10,0
94586.3328,209078.5219,-3919.6374,1.3776,10,0
94586.5446,209079.5107,-3919.7921,1.3486,10,0
94586.7701,209080.506,-3919.9442,1.3418,10,0
94586.9953,209081.4811,-3920.0894,1.3403,10,0
94587.2549,209082.455,-3920.2264,1.3156,10,0
94587.5237,209083.4252,-3920.3659,1.312,10,0
94587.8132,209084.4274,-3920.5047,1.3003,10,0
94588.1215,209085.3963,-3920.6299,1.2869,10,0
94588.4278,209086.3606,-3920.7475,1.2832,10,0
94588.7416,209087.3116,-3920.8596,1.2592,10,0
94589.0806,209088.3131,-3920.9665,1.252,10,0
94589.4011,209089.2634,-3921.0674,1.2536,10,0
94589.7381,209090.2431,-3921.1747,1.232,10,0
94590.0803,209091.2251,-3921.2827,1.2291,10,0
94590.417,209092.1981,-3921.3843,1.2331,10,0
94590.734,209093.1737,-3921.4783,1.2364,10,0
94591.0499,209094.135,-3921.5605,1.2352,10,0
94591.3651,209095.1135,-3921.675,1.2404,10,0
94591.6881,209096.1175,-3921.7889,1.24,10,0
94592.0184,209097.1327,-3921.8984,1.2304,10,0
94592.3607,209098.1296,-3921.9898,1.2118,10,0
94592.7069,209099.1249,-3922.0957,1.2132,10,0
94593.0597,209100.0726,-3922.2182,1.1794,10,0
94593.438,209101.0242,-3922.3606,1.1658,10,0
94593.8311,209101.9924,-3922.5189,1.1502,10,0
94594.235,209102.9567,-3922.6971,1.1373,10,0
94594.6451,209103.8967,-3922.881,1.1304,8,0
94595.0547,209104.8321,-3923.0944,1.1095,8,0
94595.4921,209105.7858,-3923.2975,1.0901,8,0
94595.9528,209106.6864,-3923.4901,1.0415,8,0
94596.4278,209107.5725,-3923.662,1.0196,8,0
94597.0579,209108.3589,-3923.808,0.8726,8,0
94597.7615,209109.1033,-3923.914,0.6955,8,0
94598.6133,209109.6524,-3923.926,0.5447,10,0
94599.5658,209110.0313,-3924.0071,0.279,10,0
94600.5576,209110.1964,-3924.1468,0.2156,10,0
94601.5868,209110.1997,-3924.28,0.0287,10,0
94602.59,209110.1553,-3924.2851,-0.008,10,0
94603.7002,209110.2325,-3924.3429,-0.0195,10,0
