x,y,z,yaw,velocity,change_flag
94995.7892,208915.198,-3921.8817,-3.0247,2,0
94994.8142,208914.9289,-3921.7834,-3.0234,4,0
94993.7887,208914.8819,-3921.7779,-3.0248,4,0
94992.7595,208914.7885,-3921.807,-3.0262,6,0
94991.7462,208914.7088,-3921.8046,-3.0361,6,0
94990.7455,208914.6139,-3921.7996,-3.0436,8,0
94989.7172,208914.534,-3921.8037,-3.0508,8,0
94988.6927,208914.4684,-3921.7934,-3.0636,8,0
94987.6945,208914.4004,-3921.7696,-3.0683,8,0
94986.6859,208914.3732,-3921.7464,-3.0986,8,0
94985.6809,208914.3599,-3921.7272,-3.1221,8,0
94984.656,208914.4159,-3921.7163,3.1276,8,0
94983.6332,208914.4926,-3921.6825,3.0831,8,0
94982.6067,208914.5933,-3921.6456,3.0742,8,0
94981.5891,208914.72,-3921.6145,3.0384,10,0
94980.5418,208914.8658,-3921.5932,3.0361,10,0
94979.5281,208915.0371,-3921.5762,3.0106,10,0
94978.5306,208915.1992,-3921.5572,3.0084,10,0
94977.5427,208915.3763,-3921.5246,3.0016,10,0
94976.5113,208915.5666,-3921.5052,3.0005,10,0
94975.5022,208915.7614,-3921.4989,3,10,0
94974.4881,208915.9526,-3921.4944,2.9984,10,0
94973.4974,208916.1223,-3921.4777,2.9961,10,0
94972.5117,208916.2956,-3921.4638,2.9905,10,0
94971.5229,208916.4892,-3921.4338,2.9876,10,0
94970.5217,208916.6802,-3921.4073,2.9812,10,0
94969.5012,208916.8819,-3921.387,2.9642,10,0
94968.4901,208917.0962,-3921.3907,2.9505,10,0
94967.5173,208917.3334,-3921.3957,2.9358,10,0
94966.5227,208917.5776,-3921.3841,2.9223,10,0
94965.5256,208917.8594,-3921.3534,2.8959,10,0
94964.5418,208918.1406,-3921.3437,2.8732,10,0
94963.5942,208918.4624,-3921.3509,2.8424,10,0
94962.6047,208918.7911,-3921.3463,2.8199,10,0
94961.7029,208919.2242,-3921.315,2.7414,10,0
94960.7778,208919.6693,-3921.2914,2.6953,10,0
94959.9138,208920.2082,-3921.2938,2.6141,10,0
94959.0469,208920.7334,-3921.2953,2.6126,10,0
94958.2417,208921.37,-3921.2944,2.5186,10,0
94957.4123,208922.0023,-3921.2911,2.5074,10,0
94956.615,208922.632,-3921.2715,2.4896,10,0
94955.8025,208923.2547,-3921.2549,2.4867,10,0
94955.003,208923.9128,-3921.2223,2.4704,10,0
94954.1999,208924.5598,-3921.19,2.4706,10,0
94953.4055,208925.2435,-3921.1403,2.448,10,0
94952.6353,208925.924,-3921.0813,2.4412,10,0
94951.8554,208926.609,-3921.0307,2.4386,10,0
94951.1116,208927.2993,-3920.9982,2.4339,10,0
94950.349,208927.9852,-3920.9686,2.4337,10,0
94949.6047,208928.6577,-3920.9366,2.4357,10,0
94948.8302,208929.3425,-3920.9058,2.4369,10,0
94948.0381,208930.0358,-3920.8758,2.447,10,0
94947.2607,208930.7125,-3920.8404,2.453,10,0
94946.498,208931.3638,-3920.8117,2.4549,10,0
94945.7199,208932.0278,-3920.7821,2.4793,10,0
94944.9262,208932.6875,-3920.7547,2.4881,10,0
94944.1207,208933.3243,-3920.7385,2.5284,10,0
94943.3012,208933.9397,-3920.7341,2.5485,10,0
94942.4583,208934.5234,-3920.7293,2.6056,10,0
94941.55,208935.0296,-3920.7226,2.6804,10,0
94940.6326,208935.5278,-3920.7176,2.6761,10,0
94939.655,208935.9298,-3920.6995,2.8037,10,0
94938.6799,208936.267,-3920.6725,2.8272,10,0
94937.6735,208936.5876,-3920.6616,2.8798,10,0
94936.6864,208936.8848,-3920.6439,2.8957,10,0
94935.7196,208937.2163,-3920.6083,2.9051,10,0
94934.7,208937.4903,-3920.5774,2.9246,10,0
94933.7254,208937.7262,-3920.5602,2.9255,10,0
94932.7357,208937.953,-3920.5526,2.9373,10,0
94931.7141,208938.181,-3920.5469,2.936,10,0
94930.7145,208938.3928,-3920.537,2.9307,10,0
94929.7123,208938.6083,-3920.5233,2.9265,10,0
94928.7114,208938.8324,-3920.5126,2.9047,10,0
94925.7709,208939.5122,-3920.5474,1.5708,10,0
94924.8814,208940.0369,-3920.3904,2.7785,10,0
94923.9396,208940.4604,-3920.3476,2.7097,10,0
94923.0047,208940.9506,-3920.3096,2.6819,10,0
94922.0917,208941.4061,-3920.28,2.6932,10,0
94921.2399,208941.9786,-3920.2753,2.6099,10,0
94920.3562,208942.5498,-3920.271,2.5999,10,0
94919.4993,208943.0992,-3920.2695,2.6137,10,0
94918.6371,208943.6207,-3920.282,2.6215,10,0
94917.769,208944.1288,-3920.2915,2.6269,10,0
94916.8721,208944.6547,-3920.2793,2.6564,10,0
94916.004,208945.1602,-3920.2612,2.6649,10,0
94915.0874,208945.6577,-3920.2385,2.7341,10,0
94914.1878,208946.1186,-3920.2145,2.7538,10,0
94913.2798,208946.5426,-3920.1918,2.7974,10,0
94912.2698,208946.8429,-3920.1619,2.8905,10,0
94911.2493,208947.1373,-3920.1349,2.893,10,0
94910.2522,208947.3106,-3920.0781,3.0094,10,0
94909.2452,208947.4692,-3920.0224,3.0201,10,0
94908.2498,208947.5997,-3919.9585,3.0558,10,0
94907.252,208947.6962,-3919.8783,3.0756,10,0
94906.2323,208947.7951,-3919.7991,3.0783,10,0
94905.211,208947.9038,-3919.692,3.0899,10,0
94904.1889,208948.0103,-3919.594,3.0909,10,0
94903.1537,208948.1034,-3919.4879,3.0923,10,0
94902.1199,208948.1837,-3919.3857,3.0922,10,0
94901.1167,208948.2633,-3919.2812,3.0922,10,0
94900.1008,208948.352,-3919.1527,3.0913,10,0
94899.0687,208948.4389,-3919.0305,3.0906,10,0
94898.0338,208948.5182,-3918.9261,3.0809,10,0
94897.0301,208948.5933,-3918.8409,3.08,10,0
94896.0136,208948.6987,-3918.7758,3.0623,10,0
94895.0174,208948.8186,-3918.7277,3.059,10,0
94893.9931,208948.9553,-3918.6762,3.044,10,0
94893.0024,208949.1073,-3918.6242,3.0372,10,0
94891.9954,208949.2477,-3918.5869,3.0352,10,0
94890.9893,208949.365,-3918.5651,3.0327,10,0
94889.9956,208949.4873,-3918.5408,3.0431,10,0
94888.9753,208949.6436,-3918.508,3.054,10,0
94887.9713,208949.7464,-3918.4521,3.0639,10,0
94886.9563,208949.8252,-3918.3906,3.0648,10,0
94885.9376,208949.8269,-3918.3754,3.0832,10,0
94884.903,208949.7862,-3918.3823,3.0846,10,0
94883.8732,208949.8543,-3918.4155,3.1006,10,0
94882.8655,208949.9601,-3918.4541,3.1039,10,0
94881.8509,208949.9588,-3918.4764,3.1246,10,0
94880.8195,208949.9528,-3918.4993,3.13,10,0
94879.7824,208949.9542,-3918.5333,3.1396,10,0
94878.763,208949.9569,-3918.5677,-3.1349,10,0
94877.7331,208949.9571,-3918.6157,-3.1281,10,0
94876.7227,208949.9719,-3918.6643,-3.1189,10,0
94875.6833,208950.0032,-3918.7181,-3.1152,10,0
94874.6683,208950.0164,-3918.7528,-3.1049,10,0
94873.6668,208949.9873,-3918.7749,-3.0989,10,0
